Observer point at r[809]=9.998313e-01 AU
   time           vr          rho         temp           Bp          prs
0.000000e+00 3.000000e+02 6.000000e+02 1.000000e+06 3.999956e+02 8.314473e+06
1.000000e-07 3.000000e+02 5.999640e+02 9.999700e+05 3.999836e+02 8.313724e+06
2.100000e-07 2.999999e+02 5.999244e+02 9.999370e+05 3.999704e+02 8.312901e+06
3.310000e-07 2.999999e+02 5.998808e+02 9.999007e+05 3.999559e+02 8.311996e+06
4.641000e-07 2.999999e+02 5.998329e+02 9.998607e+05 3.999399e+02 8.311000e+06
6.105100e-07 2.999998e+02 5.997802e+02 9.998168e+05 3.999224e+02 8.309904e+06
7.715610e-07 2.999998e+02 5.997222e+02 9.997685e+05 3.999030e+02 8.308699e+06
9.487171e-07 2.999997e+02 5.996585e+02 9.997153e+05 3.998818e+02 8.307374e+06
1.143589e-06 2.999997e+02 5.995883e+02 9.996569e+05 3.998584e+02 8.305917e+06
1.357948e-06 2.999996e+02 5.995112e+02 9.995925e+05 3.998327e+02 8.304314e+06
1.593742e-06 2.999996e+02 5.994263e+02 9.995218e+05 3.998044e+02 8.302550e+06
1.853117e-06 2.999995e+02 5.993330e+02 9.994440e+05 3.997732e+02 8.300611e+06
2.138428e-06 2.999994e+02 5.992303e+02 9.993584e+05 3.997390e+02 8.298478e+06
2.452271e-06 2.999993e+02 5.991174e+02 9.992642e+05 3.997013e+02 8.296133e+06
2.797498e-06 2.999992e+02 5.989932e+02 9.991606e+05 3.996599e+02 8.293553e+06
3.177248e-06 2.999991e+02 5.988565e+02 9.990467e+05 3.996143e+02 8.290716e+06
3.594973e-06 2.999990e+02 5.987063e+02 9.989213e+05 3.995642e+02 8.287596e+06
4.054470e-06 2.999988e+02 5.985410e+02 9.987835e+05 3.995090e+02 8.284165e+06
4.559917e-06 2.999987e+02 5.983593e+02 9.986318e+05 3.994484e+02 8.280392e+06
5.115909e-06 2.999985e+02 5.981594e+02 9.984650e+05 3.993816e+02 8.276243e+06
5.727500e-06 2.999983e+02 5.979395e+02 9.982815e+05 3.993082e+02 8.271680e+06
6.400250e-06 2.999980e+02 5.976977e+02 9.980796e+05 3.992275e+02 8.266663e+06
7.140275e-06 2.999978e+02 5.974318e+02 9.978576e+05 3.991387e+02 8.261147e+06
7.954302e-06 2.999975e+02 5.971394e+02 9.976133e+05 3.990410e+02 8.255082e+06
8.849733e-06 2.999971e+02 5.968178e+02 9.973446e+05 3.989335e+02 8.248415e+06
9.818830e-06 2.999968e+02 5.964698e+02 9.970539e+05 3.988172e+02 8.241202e+06
1.078775e-05 2.999964e+02 5.961221e+02 9.967631e+05 3.987009e+02 8.233995e+06
1.175655e-05 2.999960e+02 5.957744e+02 9.964724e+05 3.985846e+02 8.226794e+06
1.272532e-05 2.999956e+02 5.954269e+02 9.961818e+05 3.984684e+02 8.219596e+06
1.369378e-05 2.999952e+02 5.950796e+02 9.958912e+05 3.983521e+02 8.212405e+06
1.466189e-05 2.999947e+02 5.947325e+02 9.956007e+05 3.982359e+02 8.205221e+06
1.562972e-05 2.999943e+02 5.943856e+02 9.953103e+05 3.981198e+02 8.198044e+06
1.659733e-05 2.999938e+02 5.940389e+02 9.950200e+05 3.980036e+02 8.190872e+06
1.756478e-05 2.999934e+02 5.936923e+02 9.947297e+05 3.978875e+02 8.183705e+06
1.853212e-05 2.999929e+02 5.933459e+02 9.944394e+05 3.977714e+02 8.176543e+06
1.949941e-05 2.999924e+02 5.929996e+02 9.941492e+05 3.976553e+02 8.169386e+06
2.046646e-05 2.999919e+02 5.926535e+02 9.938591e+05 3.975393e+02 8.162235e+06
2.143318e-05 2.999914e+02 5.923076e+02 9.935690e+05 3.974232e+02 8.155091e+06
2.239963e-05 2.999908e+02 5.919619e+02 9.932790e+05 3.973072e+02 8.147952e+06
2.336585e-05 2.999903e+02 5.916164e+02 9.929891e+05 3.971913e+02 8.140820e+06
2.433190e-05 2.999898e+02 5.912711e+02 9.926992e+05 3.970753e+02 8.133693e+06
2.529782e-05 2.999892e+02 5.909259e+02 9.924094e+05 3.969594e+02 8.126571e+06
2.626367e-05 2.999886e+02 5.905808e+02 9.921196e+05 3.968435e+02 8.119454e+06
2.722940e-05 2.999880e+02 5.902359e+02 9.918299e+05 3.967276e+02 8.112342e+06
2.819478e-05 2.999874e+02 5.898912e+02 9.915402e+05 3.966117e+02 8.105236e+06
2.915987e-05 2.999868e+02 5.895467e+02 9.912506e+05 3.964959e+02 8.098137e+06
3.012472e-05 2.999862e+02 5.892024e+02 9.909611e+05 3.963801e+02 8.091044e+06
3.108938e-05 2.999856e+02 5.888582e+02 9.906717e+05 3.962643e+02 8.083956e+06
3.205390e-05 2.999849e+02 5.885142e+02 9.903823e+05 3.961485e+02 8.076874e+06
3.301834e-05 2.999843e+02 5.881704e+02 9.900929e+05 3.960328e+02 8.069796e+06
3.398275e-05 2.999836e+02 5.878266e+02 9.898035e+05 3.959170e+02 8.062723e+06
3.494679e-05 2.999829e+02 5.874831e+02 9.895143e+05 3.958013e+02 8.055656e+06
3.591054e-05 2.999822e+02 5.871398e+02 9.892251e+05 3.956857e+02 8.048596e+06
3.687404e-05 2.999815e+02 5.867967e+02 9.889360e+05 3.955700e+02 8.041541e+06
3.783736e-05 2.999808e+02 5.864537e+02 9.886470e+05 3.954544e+02 8.034492e+06
3.880053e-05 2.999801e+02 5.861109e+02 9.883580e+05 3.953388e+02 8.027449e+06
3.976362e-05 2.999793e+02 5.857682e+02 9.880690e+05 3.952232e+02 8.020410e+06
4.072667e-05 2.999786e+02 5.854257e+02 9.877801e+05 3.951076e+02 8.013375e+06
4.168941e-05 2.999778e+02 5.850833e+02 9.874912e+05 3.949921e+02 8.006347e+06
4.265185e-05 2.999770e+02 5.847412e+02 9.872024e+05 3.948765e+02 7.999325e+06
4.361405e-05 2.999762e+02 5.843992e+02 9.869137e+05 3.947611e+02 7.992309e+06
4.457606e-05 2.999754e+02 5.840574e+02 9.866251e+05 3.946456e+02 7.985298e+06
4.553793e-05 2.999746e+02 5.837158e+02 9.863365e+05 3.945301e+02 7.978293e+06
4.649971e-05 2.999738e+02 5.833743e+02 9.860479e+05 3.944147e+02 7.971292e+06
4.746147e-05 2.999730e+02 5.830329e+02 9.857593e+05 3.942993e+02 7.964296e+06
4.842293e-05 2.999721e+02 5.826917e+02 9.854708e+05 3.941839e+02 7.957306e+06
4.938410e-05 2.999713e+02 5.823507e+02 9.851824e+05 3.940685e+02 7.950322e+06
5.034503e-05 2.999704e+02 5.820099e+02 9.848941e+05 3.939532e+02 7.943343e+06
5.130578e-05 2.999695e+02 5.816692e+02 9.846059e+05 3.938379e+02 7.936371e+06
5.226639e-05 2.999686e+02 5.813287e+02 9.843176e+05 3.937226e+02 7.929403e+06
5.322692e-05 2.999677e+02 5.809883e+02 9.840294e+05 3.936073e+02 7.922440e+06
5.418742e-05 2.999668e+02 5.806481e+02 9.837412e+05 3.934920e+02 7.915482e+06
5.514763e-05 2.999659e+02 5.803080e+02 9.834531e+05 3.933767e+02 7.908529e+06
5.610756e-05 2.999649e+02 5.799682e+02 9.831651e+05 3.932615e+02 7.901583e+06
5.706726e-05 2.999640e+02 5.796285e+02 9.828772e+05 3.931463e+02 7.894642e+06
5.802678e-05 2.999630e+02 5.792890e+02 9.825893e+05 3.930312e+02 7.887707e+06
5.898617e-05 2.999620e+02 5.789496e+02 9.823014e+05 3.929160e+02 7.880776e+06
5.994548e-05 2.999610e+02 5.786104e+02 9.820136e+05 3.928009e+02 7.873851e+06
6.090478e-05 2.999600e+02 5.782713e+02 9.817257e+05 3.926857e+02 7.866929e+06
6.186377e-05 2.999590e+02 5.779323e+02 9.814380e+05 3.925706e+02 7.860014e+06
6.282249e-05 2.999580e+02 5.775936e+02 9.811503e+05 3.924555e+02 7.853105e+06
6.378099e-05 2.999570e+02 5.772550e+02 9.808628e+05 3.923405e+02 7.846201e+06
6.473932e-05 2.999559e+02 5.769167e+02 9.805752e+05 3.922255e+02 7.839303e+06
6.569753e-05 2.999548e+02 5.765784e+02 9.802877e+05 3.921105e+02 7.832410e+06
6.665569e-05 2.999538e+02 5.762403e+02 9.800002e+05 3.919954e+02 7.825521e+06
6.761381e-05 2.999527e+02 5.759023e+02 9.797128e+05 3.918804e+02 7.818636e+06
6.857160e-05 2.999516e+02 5.755644e+02 9.794254e+05 3.917655e+02 7.811758e+06
6.952914e-05 2.999505e+02 5.752268e+02 9.791381e+05 3.916505e+02 7.804885e+06
7.048648e-05 2.999494e+02 5.748894e+02 9.788508e+05 3.915356e+02 7.798018e+06
7.144366e-05 2.999482e+02 5.745521e+02 9.785636e+05 3.914207e+02 7.791157e+06
7.240074e-05 2.999471e+02 5.742149e+02 9.782765e+05 3.913059e+02 7.784300e+06
7.335777e-05 2.999459e+02 5.738779e+02 9.779893e+05 3.911910e+02 7.777447e+06
7.431470e-05 2.999448e+02 5.735410e+02 9.777022e+05 3.910761e+02 7.770599e+06
7.527133e-05 2.999436e+02 5.732043e+02 9.774152e+05 3.909613e+02 7.763758e+06
7.622773e-05 2.999424e+02 5.728678e+02 9.771282e+05 3.908465e+02 7.756922e+06
7.718393e-05 2.999412e+02 5.725314e+02 9.768413e+05 3.907317e+02 7.750091e+06
7.814000e-05 2.999400e+02 5.721952e+02 9.765545e+05 3.906170e+02 7.743265e+06
7.909599e-05 2.999387e+02 5.718591e+02 9.762676e+05 3.905022e+02 7.736444e+06
8.005195e-05 2.999375e+02 5.715231e+02 9.759808e+05 3.903875e+02 7.729627e+06
8.100772e-05 2.999362e+02 5.711873e+02 9.756940e+05 3.902727e+02 7.722816e+06
8.196322e-05 2.999350e+02 5.708517e+02 9.754074e+05 3.901580e+02 7.716010e+06
8.291851e-05 2.999337e+02 5.705163e+02 9.751207e+05 3.900434e+02 7.709210e+06
8.387362e-05 2.999324e+02 5.701810e+02 9.748342e+05 3.899287e+02 7.702415e+06
8.482862e-05 2.999311e+02 5.698459e+02 9.745476e+05 3.898141e+02 7.695625e+06
8.578356e-05 2.999298e+02 5.695108e+02 9.742611e+05 3.896995e+02 7.688840e+06
8.673849e-05 2.999285e+02 5.691759e+02 9.739746e+05 3.895848e+02 7.682058e+06
8.769314e-05 2.999272e+02 5.688412e+02 9.736882e+05 3.894702e+02 7.675283e+06
8.864755e-05 2.999258e+02 5.685067e+02 9.734018e+05 3.893557e+02 7.668513e+06
8.960175e-05 2.999244e+02 5.681723e+02 9.731155e+05 3.892411e+02 7.661749e+06
9.055581e-05 2.999231e+02 5.678381e+02 9.728293e+05 3.891266e+02 7.654989e+06
9.150978e-05 2.999217e+02 5.675040e+02 9.725430e+05 3.890121e+02 7.648234e+06
9.246372e-05 2.999203e+02 5.671700e+02 9.722568e+05 3.888976e+02 7.641484e+06
9.341756e-05 2.999189e+02 5.668361e+02 9.719706e+05 3.887831e+02 7.634738e+06
9.437112e-05 2.999175e+02 5.665025e+02 9.716845e+05 3.886686e+02 7.627998e+06
9.532446e-05 2.999160e+02 5.661690e+02 9.713985e+05 3.885542e+02 7.621264e+06
9.627762e-05 2.999146e+02 5.658357e+02 9.711125e+05 3.884398e+02 7.614534e+06
9.723068e-05 2.999131e+02 5.655025e+02 9.708266e+05 3.883254e+02 7.607810e+06
9.818367e-05 2.999117e+02 5.651695e+02 9.705406e+05 3.882110e+02 7.601090e+06
9.913665e-05 2.999102e+02 5.648365e+02 9.702547e+05 3.880966e+02 7.594374e+06
1.000894e-04 2.999087e+02 5.645037e+02 9.699688e+05 3.879822e+02 7.587663e+06
1.010419e-04 2.999072e+02 5.641711e+02 9.696831e+05 3.878678e+02 7.580959e+06
1.019942e-04 2.999057e+02 5.638387e+02 9.693973e+05 3.877535e+02 7.574259e+06
1.029464e-04 2.999042e+02 5.635064e+02 9.691116e+05 3.876392e+02 7.567565e+06
1.038985e-04 2.999026e+02 5.631743e+02 9.688260e+05 3.875249e+02 7.560875e+06
1.048506e-04 2.999011e+02 5.628422e+02 9.685403e+05 3.874106e+02 7.554189e+06
1.058025e-04 2.998995e+02 5.625103e+02 9.682547e+05 3.872963e+02 7.547508e+06
1.067542e-04 2.998979e+02 5.621786e+02 9.679692e+05 3.871821e+02 7.540832e+06
1.077057e-04 2.998964e+02 5.618470e+02 9.676837e+05 3.870679e+02 7.534162e+06
1.086571e-04 2.998948e+02 5.615156e+02 9.673982e+05 3.869537e+02 7.527497e+06
1.096083e-04 2.998931e+02 5.611844e+02 9.671128e+05 3.868395e+02 7.520837e+06
1.105595e-04 2.998915e+02 5.608532e+02 9.668275e+05 3.867253e+02 7.514181e+06
1.115106e-04 2.998899e+02 5.605222e+02 9.665421e+05 3.866111e+02 7.507529e+06
1.124616e-04 2.998882e+02 5.601913e+02 9.662568e+05 3.864969e+02 7.500882e+06
1.134123e-04 2.998866e+02 5.598606e+02 9.659715e+05 3.863828e+02 7.494241e+06
1.143628e-04 2.998849e+02 5.595301e+02 9.656863e+05 3.862687e+02 7.487606e+06
1.153132e-04 2.998832e+02 5.591997e+02 9.654012e+05 3.861546e+02 7.480975e+06
1.162635e-04 2.998815e+02 5.588694e+02 9.651161e+05 3.860405e+02 7.474348e+06
1.172138e-04 2.998798e+02 5.585392e+02 9.648309e+05 3.859264e+02 7.467726e+06
1.181640e-04 2.998781e+02 5.582092e+02 9.645458e+05 3.858123e+02 7.461108e+06
1.191139e-04 2.998764e+02 5.578794e+02 9.642608e+05 3.856983e+02 7.454496e+06
1.200637e-04 2.998746e+02 5.575497e+02 9.639759e+05 3.855843e+02 7.447889e+06
1.210133e-04 2.998729e+02 5.572202e+02 9.636910e+05 3.854703e+02 7.441288e+06
1.219628e-04 2.998711e+02 5.568908e+02 9.634061e+05 3.853563e+02 7.434690e+06
1.229123e-04 2.998693e+02 5.565615e+02 9.631212e+05 3.852423e+02 7.428097e+06
1.238617e-04 2.998676e+02 5.562323e+02 9.628364e+05 3.851283e+02 7.421508e+06
1.248109e-04 2.998658e+02 5.559033e+02 9.625516e+05 3.850143e+02 7.414924e+06
1.257599e-04 2.998639e+02 5.555745e+02 9.622668e+05 3.849004e+02 7.408346e+06
1.267087e-04 2.998621e+02 5.552458e+02 9.619822e+05 3.847865e+02 7.401773e+06
1.276575e-04 2.998603e+02 5.549173e+02 9.616975e+05 3.846726e+02 7.395205e+06
1.286062e-04 2.998584e+02 5.545888e+02 9.614129e+05 3.845587e+02 7.388640e+06
1.295549e-04 2.998566e+02 5.542605e+02 9.611282e+05 3.844448e+02 7.382080e+06
1.305033e-04 2.998547e+02 5.539323e+02 9.608437e+05 3.843309e+02 7.375525e+06
1.314516e-04 2.998528e+02 5.536044e+02 9.605592e+05 3.842171e+02 7.368975e+06
1.323997e-04 2.998509e+02 5.532765e+02 9.602747e+05 3.841032e+02 7.362430e+06
1.333476e-04 2.998490e+02 5.529488e+02 9.599903e+05 3.839894e+02 7.355890e+06
1.342956e-04 2.998471e+02 5.526212e+02 9.597059e+05 3.838756e+02 7.349355e+06
1.352435e-04 2.998451e+02 5.522938e+02 9.594215e+05 3.837618e+02 7.342823e+06
1.361912e-04 2.998432e+02 5.519664e+02 9.591371e+05 3.836480e+02 7.336296e+06
1.371388e-04 2.998412e+02 5.516393e+02 9.588529e+05 3.835342e+02 7.329774e+06
1.380861e-04 2.998393e+02 5.513123e+02 9.585686e+05 3.834205e+02 7.323258e+06
1.390334e-04 2.998373e+02 5.509854e+02 9.582844e+05 3.833068e+02 7.316746e+06
1.399806e-04 2.998353e+02 5.506587e+02 9.580002e+05 3.831930e+02 7.310239e+06
1.409277e-04 2.998333e+02 5.503320e+02 9.577161e+05 3.830793e+02 7.303735e+06
1.418748e-04 2.998312e+02 5.500055e+02 9.574319e+05 3.829656e+02 7.297236e+06
1.428216e-04 2.998292e+02 5.496792e+02 9.571478e+05 3.828519e+02 7.290743e+06
1.437683e-04 2.998272e+02 5.493530e+02 9.568638e+05 3.827383e+02 7.284255e+06
1.447148e-04 2.998251e+02 5.490270e+02 9.565798e+05 3.826246e+02 7.277771e+06
1.456613e-04 2.998230e+02 5.487011e+02 9.562959e+05 3.825110e+02 7.271292e+06
1.466077e-04 2.998210e+02 5.483753e+02 9.560119e+05 3.823973e+02 7.264816e+06
1.475541e-04 2.998189e+02 5.480496e+02 9.557280e+05 3.822837e+02 7.258345e+06
1.485003e-04 2.998168e+02 5.477241e+02 9.554441e+05 3.821701e+02 7.251879e+06
1.494462e-04 2.998147e+02 5.473987e+02 9.551603e+05 3.820565e+02 7.245419e+06
1.503921e-04 2.998125e+02 5.470735e+02 9.548765e+05 3.819429e+02 7.238963e+06
1.513379e-04 2.998104e+02 5.467484e+02 9.545928e+05 3.818293e+02 7.232511e+06
1.522836e-04 2.998082e+02 5.464234e+02 9.543090e+05 3.817158e+02 7.226064e+06
1.532293e-04 2.998061e+02 5.460985e+02 9.540253e+05 3.816022e+02 7.219620e+06
1.541748e-04 2.998039e+02 5.457738e+02 9.537416e+05 3.814887e+02 7.213182e+06
1.551201e-04 2.998017e+02 5.454493e+02 9.534580e+05 3.813752e+02 7.206749e+06
1.560653e-04 2.997995e+02 5.451249e+02 9.531744e+05 3.812617e+02 7.200321e+06
1.570104e-04 2.997973e+02 5.448006e+02 9.528909e+05 3.811482e+02 7.193897e+06
1.579555e-04 2.997951e+02 5.444764e+02 9.526073e+05 3.810347e+02 7.187477e+06
1.589005e-04 2.997928e+02 5.441524e+02 9.523238e+05 3.809212e+02 7.181061e+06
1.598454e-04 2.997906e+02 5.438285e+02 9.520403e+05 3.808078e+02 7.174650e+06
1.607900e-04 2.997883e+02 5.435047e+02 9.517569e+05 3.806943e+02 7.168245e+06
1.617345e-04 2.997860e+02 5.431811e+02 9.514735e+05 3.805809e+02 7.161844e+06
1.626790e-04 2.997837e+02 5.428576e+02 9.511902e+05 3.804675e+02 7.155447e+06
1.636234e-04 2.997814e+02 5.425343e+02 9.509068e+05 3.803541e+02 7.149054e+06
1.645678e-04 2.997791e+02 5.422110e+02 9.506235e+05 3.802407e+02 7.142665e+06
1.655120e-04 2.997768e+02 5.418879e+02 9.503402e+05 3.801273e+02 7.136282e+06
1.664560e-04 2.997745e+02 5.415650e+02 9.500570e+05 3.800139e+02 7.129904e+06
1.673999e-04 2.997721e+02 5.412422e+02 9.497738e+05 3.799006e+02 7.123530e+06
1.683437e-04 2.997698e+02 5.409195e+02 9.494906e+05 3.797872e+02 7.117160e+06
1.692875e-04 2.997674e+02 5.405969e+02 9.492075e+05 3.796739e+02 7.110795e+06
1.702313e-04 2.997650e+02 5.402744e+02 9.489243e+05 3.795606e+02 7.104433e+06
1.711749e-04 2.997626e+02 5.399521e+02 9.486412e+05 3.794472e+02 7.098077e+06
1.721183e-04 2.997602e+02 5.396300e+02 9.483582e+05 3.793339e+02 7.091725e+06
1.730615e-04 2.997578e+02 5.393079e+02 9.480752e+05 3.792207e+02 7.085379e+06
1.740047e-04 2.997553e+02 5.389860e+02 9.477922e+05 3.791074e+02 7.079036e+06
1.749479e-04 2.997529e+02 5.386642e+02 9.475092e+05 3.789941e+02 7.072697e+06
1.758911e-04 2.997504e+02 5.383426e+02 9.472263e+05 3.788809e+02 7.066362e+06
1.768341e-04 2.997480e+02 5.380210e+02 9.469434e+05 3.787676e+02 7.060033e+06
1.777768e-04 2.997455e+02 5.376997e+02 9.466605e+05 3.786544e+02 7.053708e+06
1.787195e-04 2.997430e+02 5.373784e+02 9.463777e+05 3.785412e+02 7.047388e+06
1.796621e-04 2.997405e+02 5.370573e+02 9.460949e+05 3.784280e+02 7.041072e+06
1.806047e-04 2.997380e+02 5.367363e+02 9.458121e+05 3.783148e+02 7.034760e+06
1.815473e-04 2.997354e+02 5.364154e+02 9.455293e+05 3.782016e+02 7.028452e+06
1.824896e-04 2.997329e+02 5.360947e+02 9.452466e+05 3.780884e+02 7.022150e+06
1.834318e-04 2.997303e+02 5.357741e+02 9.449639e+05 3.779752e+02 7.015852e+06
1.843739e-04 2.997278e+02 5.354536e+02 9.446813e+05 3.778621e+02 7.009558e+06
1.853160e-04 2.997252e+02 5.351333e+02 9.443987e+05 3.777489e+02 7.003269e+06
1.862580e-04 2.997226e+02 5.348130e+02 9.441160e+05 3.776358e+02 6.996983e+06
1.872000e-04 2.997200e+02 5.344929e+02 9.438334e+05 3.775226e+02 6.990702e+06
1.881417e-04 2.997174e+02 5.341730e+02 9.435509e+05 3.774095e+02 6.984426e+06
1.890833e-04 2.997147e+02 5.338532e+02 9.432684e+05 3.772964e+02 6.978154e+06
1.900249e-04 2.997121e+02 5.335335e+02 9.429859e+05 3.771834e+02 6.971887e+06
1.909663e-04 2.997094e+02 5.332139e+02 9.427035e+05 3.770703e+02 6.965624e+06
1.919079e-04 2.997068e+02 5.328944e+02 9.424210e+05 3.769572e+02 6.959364e+06
1.928492e-04 2.997041e+02 5.325751e+02 9.421386e+05 3.768441e+02 6.953109e+06
1.937904e-04 2.997014e+02 5.322559e+02 9.418562e+05 3.767311e+02 6.946860e+06
1.947315e-04 2.996987e+02 5.319368e+02 9.415739e+05 3.766180e+02 6.940614e+06
1.956724e-04 2.996960e+02 5.316179e+02 9.412916e+05 3.765050e+02 6.934373e+06
1.966134e-04 2.996932e+02 5.312991e+02 9.410093e+05 3.763920e+02 6.928136e+06
1.975544e-04 2.996905e+02 5.309803e+02 9.407270e+05 3.762790e+02 6.921903e+06
1.984952e-04 2.996877e+02 5.306618e+02 9.404447e+05 3.761660e+02 6.915674e+06
1.994358e-04 2.996850e+02 5.303433e+02 9.401625e+05 3.760530e+02 6.909451e+06
2.003763e-04 2.996822e+02 5.300251e+02 9.398804e+05 3.759400e+02 6.903231e+06
2.013168e-04 2.996794e+02 5.297069e+02 9.395982e+05 3.758270e+02 6.897016e+06
2.022572e-04 2.996766e+02 5.293888e+02 9.393161e+05 3.757141e+02 6.890805e+06
2.031977e-04 2.996738e+02 5.290708e+02 9.390339e+05 3.756011e+02 6.884598e+06
2.041379e-04 2.996710e+02 5.287530e+02 9.387519e+05 3.754882e+02 6.878395e+06
2.050780e-04 2.996681e+02 5.284354e+02 9.384698e+05 3.753752e+02 6.872198e+06
2.060180e-04 2.996653e+02 5.281178e+02 9.381878e+05 3.752623e+02 6.866004e+06
2.069579e-04 2.996624e+02 5.278004e+02 9.379058e+05 3.751494e+02 6.859815e+06
2.078979e-04 2.996595e+02 5.274831e+02 9.376238e+05 3.750365e+02 6.853630e+06
2.088377e-04 2.996566e+02 5.271659e+02 9.373419e+05 3.749236e+02 6.847448e+06
2.097774e-04 2.996537e+02 5.268488e+02 9.370599e+05 3.748107e+02 6.841272e+06
2.107170e-04 2.996508e+02 5.265319e+02 9.367781e+05 3.746978e+02 6.835100e+06
2.116565e-04 2.996479e+02 5.262151e+02 9.364962e+05 3.745850e+02 6.828932e+06
2.125959e-04 2.996449e+02 5.258984e+02 9.362144e+05 3.744721e+02 6.822768e+06
2.135354e-04 2.996420e+02 5.255818e+02 9.359325e+05 3.743593e+02 6.816608e+06
2.144747e-04 2.996390e+02 5.252654e+02 9.356507e+05 3.742464e+02 6.810453e+06
2.154139e-04 2.996360e+02 5.249491e+02 9.353690e+05 3.741336e+02 6.804302e+06
2.163530e-04 2.996331e+02 5.246329e+02 9.350872e+05 3.740208e+02 6.798156e+06
2.172920e-04 2.996301e+02 5.243168e+02 9.348055e+05 3.739080e+02 6.792014e+06
2.182309e-04 2.996270e+02 5.240009e+02 9.345238e+05 3.737952e+02 6.785875e+06
2.191700e-04 2.996240e+02 5.236850e+02 9.342421e+05 3.736823e+02 6.779740e+06
2.201088e-04 2.996210e+02 5.233693e+02 9.339605e+05 3.735696e+02 6.773611e+06
2.210474e-04 2.996179e+02 5.230538e+02 9.336789e+05 3.734568e+02 6.767485e+06
2.219860e-04 2.996149e+02 5.227383e+02 9.333973e+05 3.733440e+02 6.761365e+06
2.229245e-04 2.996118e+02 5.224230e+02 9.331158e+05 3.732313e+02 6.755248e+06
2.238631e-04 2.996087e+02 5.221078e+02 9.328342e+05 3.731185e+02 6.749134e+06
2.248016e-04 2.996056e+02 5.217927e+02 9.325526e+05 3.730058e+02 6.743025e+06
2.257399e-04 2.996025e+02 5.214777e+02 9.322712e+05 3.728930e+02 6.736921e+06
2.266780e-04 2.995993e+02 5.211629e+02 9.319897e+05 3.727803e+02 6.730821e+06
