Observer point at r[822]=1.000358e+00 AU
   time           vr          rho         temp           Bp          prs
0.000000e+00 3.000000e+02 5.000000e+02 1.250000e+06 1.000000e+03 8.660909e+06
1.000000e-07 2.999998e+02 4.999700e+02 1.249963e+06 9.999700e+02 8.660130e+06
2.100000e-07 2.999996e+02 4.999370e+02 1.249921e+06 9.999370e+02 8.659273e+06
3.310000e-07 2.999993e+02 4.999007e+02 1.249876e+06 9.999007e+02 8.658330e+06
4.641000e-07 2.999991e+02 4.998608e+02 1.249826e+06 9.998608e+02 8.657293e+06
6.105100e-07 2.999988e+02 4.998169e+02 1.249771e+06 9.998169e+02 8.656153e+06
7.715610e-07 2.999985e+02 4.997686e+02 1.249711e+06 9.997686e+02 8.654898e+06
9.487171e-07 2.999981e+02 4.997155e+02 1.249644e+06 9.997155e+02 8.653519e+06
1.143589e-06 2.999977e+02 4.996571e+02 1.249571e+06 9.996570e+02 8.652001e+06
1.357948e-06 2.999973e+02 4.995928e+02 1.249491e+06 9.995928e+02 8.650332e+06
1.593742e-06 2.999968e+02 4.995222e+02 1.249403e+06 9.995220e+02 8.648497e+06
1.853117e-06 2.999963e+02 4.994444e+02 1.249305e+06 9.994443e+02 8.646478e+06
2.138428e-06 2.999957e+02 4.993589e+02 1.249198e+06 9.993587e+02 8.644257e+06
2.452271e-06 2.999950e+02 4.992649e+02 1.249081e+06 9.992646e+02 8.641815e+06
2.797498e-06 2.999943e+02 4.991614e+02 1.248951e+06 9.991611e+02 8.639129e+06
3.177248e-06 2.999936e+02 4.990476e+02 1.248809e+06 9.990472e+02 8.636176e+06
3.594973e-06 2.999927e+02 4.989225e+02 1.248652e+06 9.989219e+02 8.632927e+06
4.054470e-06 2.999918e+02 4.987848e+02 1.248480e+06 9.987841e+02 8.629355e+06
4.559917e-06 2.999907e+02 4.986335e+02 1.248291e+06 9.986325e+02 8.625427e+06
5.115909e-06 2.999896e+02 4.984670e+02 1.248082e+06 9.984658e+02 8.621107e+06
5.727500e-06 2.999883e+02 4.982839e+02 1.247853e+06 9.982824e+02 8.616357e+06
6.400250e-06 2.999869e+02 4.980825e+02 1.247601e+06 9.980806e+02 8.611134e+06
7.140275e-06 2.999853e+02 4.978610e+02 1.247323e+06 9.978587e+02 8.605392e+06
7.954302e-06 2.999836e+02 4.976174e+02 1.247018e+06 9.976146e+02 8.599077e+06
8.849733e-06 2.999816e+02 4.973496e+02 1.246683e+06 9.973460e+02 8.592136e+06
9.789083e-06 2.999796e+02 4.970687e+02 1.246330e+06 9.970643e+02 8.584857e+06
1.072811e-05 2.999776e+02 4.967880e+02 1.245978e+06 9.967827e+02 8.577586e+06
1.166688e-05 2.999755e+02 4.965074e+02 1.245627e+06 9.965012e+02 8.570320e+06
1.260547e-05 2.999735e+02 4.962269e+02 1.245275e+06 9.962197e+02 8.563060e+06
1.354395e-05 2.999714e+02 4.959466e+02 1.244923e+06 9.959383e+02 8.555805e+06
1.448212e-05 2.999693e+02 4.956665e+02 1.244571e+06 9.956569e+02 8.548556e+06
1.541977e-05 2.999672e+02 4.953865e+02 1.244220e+06 9.953757e+02 8.541316e+06
1.635698e-05 2.999650e+02 4.951068e+02 1.243869e+06 9.950947e+02 8.534083e+06
1.729380e-05 2.999629e+02 4.948273e+02 1.243517e+06 9.948137e+02 8.526857e+06
1.823030e-05 2.999608e+02 4.945480e+02 1.243166e+06 9.945329e+02 8.519638e+06
1.916653e-05 2.999586e+02 4.942688e+02 1.242815e+06 9.942521e+02 8.512425e+06
2.010254e-05 2.999564e+02 4.939898e+02 1.242465e+06 9.939714e+02 8.505217e+06
2.103838e-05 2.999542e+02 4.937109e+02 1.242114e+06 9.936907e+02 8.498015e+06
2.197411e-05 2.999520e+02 4.934321e+02 1.241763e+06 9.934101e+02 8.490818e+06
2.290951e-05 2.999498e+02 4.931535e+02 1.241412e+06 9.931296e+02 8.483628e+06
2.384440e-05 2.999475e+02 4.928751e+02 1.241062e+06 9.928492e+02 8.476446e+06
2.477886e-05 2.999453e+02 4.925969e+02 1.240712e+06 9.925690e+02 8.469271e+06
2.571295e-05 2.999430e+02 4.923189e+02 1.240362e+06 9.922888e+02 8.462103e+06
2.664672e-05 2.999407e+02 4.920411e+02 1.240012e+06 9.920088e+02 8.454941e+06
2.758022e-05 2.999384e+02 4.917635e+02 1.239662e+06 9.917288e+02 8.447786e+06
2.851352e-05 2.999361e+02 4.914860e+02 1.239312e+06 9.914489e+02 8.440636e+06
2.944666e-05 2.999338e+02 4.912086e+02 1.238962e+06 9.911691e+02 8.433491e+06
3.037970e-05 2.999315e+02 4.909313e+02 1.238612e+06 9.908893e+02 8.426352e+06
3.131235e-05 2.999291e+02 4.906542e+02 1.238263e+06 9.906096e+02 8.419219e+06
3.224450e-05 2.999268e+02 4.903774e+02 1.237913e+06 9.903300e+02 8.412094e+06
3.317626e-05 2.999244e+02 4.901007e+02 1.237564e+06 9.900506e+02 8.404976e+06
3.410766e-05 2.999220e+02 4.898243e+02 1.237215e+06 9.897713e+02 8.397865e+06
3.503878e-05 2.999196e+02 4.895480e+02 1.236866e+06 9.894920e+02 8.390761e+06
3.596966e-05 2.999172e+02 4.892718e+02 1.236517e+06 9.892128e+02 8.383662e+06
3.690036e-05 2.999147e+02 4.889958e+02 1.236168e+06 9.889337e+02 8.376568e+06
3.783094e-05 2.999123e+02 4.887199e+02 1.235819e+06 9.886546e+02 8.369480e+06
3.876139e-05 2.999098e+02 4.884441e+02 1.235471e+06 9.883756e+02 8.362396e+06
3.969135e-05 2.999073e+02 4.881685e+02 1.235122e+06 9.880967e+02 8.355320e+06
4.062086e-05 2.999048e+02 4.878931e+02 1.234774e+06 9.878179e+02 8.348252e+06
4.155002e-05 2.999023e+02 4.876180e+02 1.234425e+06 9.875393e+02 8.341190e+06
4.247886e-05 2.998998e+02 4.873430e+02 1.234077e+06 9.872607e+02 8.334135e+06
4.340745e-05 2.998973e+02 4.870681e+02 1.233729e+06 9.869822e+02 8.327085e+06
4.433584e-05 2.998947e+02 4.867934e+02 1.233381e+06 9.867038e+02 8.320041e+06
4.526410e-05 2.998922e+02 4.865188e+02 1.233033e+06 9.864254e+02 8.313002e+06
4.619228e-05 2.998896e+02 4.862443e+02 1.232685e+06 9.861470e+02 8.305968e+06
4.712010e-05 2.998870e+02 4.859700e+02 1.232338e+06 9.858688e+02 8.298940e+06
4.804745e-05 2.998844e+02 4.856959e+02 1.231990e+06 9.855906e+02 8.291920e+06
4.897443e-05 2.998818e+02 4.854220e+02 1.231643e+06 9.853126e+02 8.284907e+06
4.990110e-05 2.998791e+02 4.851483e+02 1.231295e+06 9.850347e+02 8.277900e+06
5.082750e-05 2.998765e+02 4.848747e+02 1.230948e+06 9.847569e+02 8.270899e+06
5.175370e-05 2.998738e+02 4.846012e+02 1.230601e+06 9.844791e+02 8.263904e+06
5.267976e-05 2.998711e+02 4.843279e+02 1.230254e+06 9.842014e+02 8.256913e+06
5.360572e-05 2.998685e+02 4.840547e+02 1.229907e+06 9.839236e+02 8.249928e+06
5.453146e-05 2.998657e+02 4.837816e+02 1.229560e+06 9.836460e+02 8.242948e+06
5.545673e-05 2.998630e+02 4.835088e+02 1.229213e+06 9.833685e+02 8.235975e+06
5.638162e-05 2.998603e+02 4.832361e+02 1.228866e+06 9.830911e+02 8.229009e+06
5.730619e-05 2.998576e+02 4.829636e+02 1.228520e+06 9.828138e+02 8.222050e+06
5.823050e-05 2.998548e+02 4.826913e+02 1.228174e+06 9.825366e+02 8.215096e+06
5.915460e-05 2.998520e+02 4.824191e+02 1.227827e+06 9.822594e+02 8.208148e+06
6.007856e-05 2.998492e+02 4.821470e+02 1.227481e+06 9.819823e+02 8.201205e+06
6.100244e-05 2.998464e+02 4.818750e+02 1.227135e+06 9.817052e+02 8.194267e+06
6.192614e-05 2.998436e+02 4.816032e+02 1.226788e+06 9.814282e+02 8.187334e+06
6.284938e-05 2.998408e+02 4.813315e+02 1.226442e+06 9.811513e+02 8.180408e+06
6.377225e-05 2.998379e+02 4.810601e+02 1.226097e+06 9.808745e+02 8.173489e+06
6.469480e-05 2.998351e+02 4.807888e+02 1.225751e+06 9.805978e+02 8.166576e+06
6.561710e-05 2.998322e+02 4.805177e+02 1.225405e+06 9.803212e+02 8.159669e+06
6.653921e-05 2.998293e+02 4.802467e+02 1.225060e+06 9.800446e+02 8.152768e+06
6.746118e-05 2.998264e+02 4.799758e+02 1.224714e+06 9.797681e+02 8.145871e+06
6.838307e-05 2.998235e+02 4.797051e+02 1.224369e+06 9.794916e+02 8.138979e+06
6.930478e-05 2.998206e+02 4.794344e+02 1.224023e+06 9.792152e+02 8.132092e+06
7.022605e-05 2.998176e+02 4.791640e+02 1.223678e+06 9.789388e+02 8.125212e+06
7.114695e-05 2.998147e+02 4.788937e+02 1.223333e+06 9.786626e+02 8.118339e+06
7.206757e-05 2.998117e+02 4.786236e+02 1.222988e+06 9.783865e+02 8.111472e+06
7.298794e-05 2.998087e+02 4.783537e+02 1.222643e+06 9.781105e+02 8.104611e+06
7.390813e-05 2.998057e+02 4.780839e+02 1.222298e+06 9.778345e+02 8.097755e+06
7.482820e-05 2.998027e+02 4.778142e+02 1.221953e+06 9.775585e+02 8.090904e+06
7.574821e-05 2.997997e+02 4.775446e+02 1.221608e+06 9.772826e+02 8.084057e+06
7.666798e-05 2.997966e+02 4.772751e+02 1.221264e+06 9.770067e+02 8.077215e+06
7.758733e-05 2.997936e+02 4.770059e+02 1.220919e+06 9.767309e+02 8.070381e+06
7.850634e-05 2.997905e+02 4.767368e+02 1.220575e+06 9.764553e+02 8.063553e+06
7.942508e-05 2.997874e+02 4.764679e+02 1.220230e+06 9.761797e+02 8.056731e+06
8.034360e-05 2.997843e+02 4.761991e+02 1.219886e+06 9.759042e+02 8.049915e+06
8.126196e-05 2.997812e+02 4.759304e+02 1.219542e+06 9.756288e+02 8.043103e+06
8.218023e-05 2.997781e+02 4.756619e+02 1.219198e+06 9.753533e+02 8.036297e+06
8.309847e-05 2.997749e+02 4.753934e+02 1.218854e+06 9.750779e+02 8.029494e+06
8.401635e-05 2.997718e+02 4.751251e+02 1.218510e+06 9.748026e+02 8.022698e+06
8.493384e-05 2.997686e+02 4.748570e+02 1.218166e+06 9.745274e+02 8.015908e+06
8.585102e-05 2.997654e+02 4.745891e+02 1.217822e+06 9.742523e+02 8.009125e+06
8.676796e-05 2.997622e+02 4.743213e+02 1.217479e+06 9.739772e+02 8.002347e+06
8.768472e-05 2.997590e+02 4.740536e+02 1.217135e+06 9.737023e+02 7.995574e+06
8.860134e-05 2.997558e+02 4.737861e+02 1.216791e+06 9.734273e+02 7.988807e+06
8.951791e-05 2.997525e+02 4.735186e+02 1.216448e+06 9.731524e+02 7.982043e+06
9.043436e-05 2.997493e+02 4.732513e+02 1.216105e+06 9.728775e+02 7.975285e+06
9.135039e-05 2.997460e+02 4.729842e+02 1.215761e+06 9.726027e+02 7.968533e+06
9.226609e-05 2.997427e+02 4.727172e+02 1.215418e+06 9.723281e+02 7.961787e+06
9.318152e-05 2.997394e+02 4.724504e+02 1.215075e+06 9.720535e+02 7.955047e+06
9.409674e-05 2.997361e+02 4.721837e+02 1.214732e+06 9.717789e+02 7.948313e+06
9.501181e-05 2.997328e+02 4.719171e+02 1.214389e+06 9.715044e+02 7.941584e+06
9.592680e-05 2.997295e+02 4.716507e+02 1.214046e+06 9.712300e+02 7.934859e+06
9.684176e-05 2.997261e+02 4.713843e+02 1.213703e+06 9.709555e+02 7.928138e+06
9.775640e-05 2.997228e+02 4.711181e+02 1.213361e+06 9.706812e+02 7.921423e+06
9.867067e-05 2.997194e+02 4.708521e+02 1.213018e+06 9.704069e+02 7.914715e+06
9.958466e-05 2.997160e+02 4.705863e+02 1.212676e+06 9.701327e+02 7.908012e+06
1.004984e-04 2.997126e+02 4.703205e+02 1.212333e+06 9.698586e+02 7.901315e+06
1.014120e-04 2.997091e+02 4.700549e+02 1.211991e+06 9.695846e+02 7.894623e+06
1.023255e-04 2.997057e+02 4.697895e+02 1.211648e+06 9.693106e+02 7.887936e+06
1.032389e-04 2.997023e+02 4.695241e+02 1.211306e+06 9.690366e+02 7.881253e+06
1.041522e-04 2.996988e+02 4.692588e+02 1.210964e+06 9.687626e+02 7.874575e+06
1.050651e-04 2.996953e+02 4.689937e+02 1.210622e+06 9.684888e+02 7.867903e+06
1.059777e-04 2.996918e+02 4.687288e+02 1.210280e+06 9.682150e+02 7.861238e+06
1.068900e-04 2.996883e+02 4.684640e+02 1.209938e+06 9.679413e+02 7.854578e+06
1.078022e-04 2.996848e+02 4.681994e+02 1.209596e+06 9.676677e+02 7.847923e+06
1.087143e-04 2.996812e+02 4.679348e+02 1.209254e+06 9.673941e+02 7.841272e+06
1.096263e-04 2.996777e+02 4.676704e+02 1.208913e+06 9.671205e+02 7.834626e+06
1.105382e-04 2.996741e+02 4.674060e+02 1.208571e+06 9.668469e+02 7.827984e+06
1.114498e-04 2.996705e+02 4.671419e+02 1.208229e+06 9.665735e+02 7.821349e+06
1.123610e-04 2.996670e+02 4.668779e+02 1.207888e+06 9.663001e+02 7.814720e+06
1.132720e-04 2.996633e+02 4.666140e+02 1.207547e+06 9.660268e+02 7.808096e+06
1.141828e-04 2.996597e+02 4.663503e+02 1.207205e+06 9.657536e+02 7.801477e+06
1.150935e-04 2.996561e+02 4.660867e+02 1.206864e+06 9.654804e+02 7.794863e+06
1.160041e-04 2.996524e+02 4.658232e+02 1.206523e+06 9.652072e+02 7.788254e+06
1.169148e-04 2.996488e+02 4.655597e+02 1.206182e+06 9.649340e+02 7.781648e+06
1.178250e-04 2.996451e+02 4.652965e+02 1.205841e+06 9.646609e+02 7.775048e+06
1.187349e-04 2.996414e+02 4.650334e+02 1.205500e+06 9.643879e+02 7.768455e+06
1.196446e-04 2.996377e+02 4.647704e+02 1.205159e+06 9.641150e+02 7.761867e+06
1.205541e-04 2.996340e+02 4.645076e+02 1.204818e+06 9.638422e+02 7.755284e+06
1.214635e-04 2.996302e+02 4.642449e+02 1.204477e+06 9.635694e+02 7.748706e+06
1.223728e-04 2.996265e+02 4.639823e+02 1.204136e+06 9.632965e+02 7.742132e+06
1.232822e-04 2.996227e+02 4.637197e+02 1.203796e+06 9.630237e+02 7.735561e+06
1.241911e-04 2.996189e+02 4.634574e+02 1.203455e+06 9.627510e+02 7.728997e+06
1.250998e-04 2.996151e+02 4.631952e+02 1.203115e+06 9.624784e+02 7.722439e+06
1.260082e-04 2.996113e+02 4.629331e+02 1.202774e+06 9.622059e+02 7.715887e+06
1.269165e-04 2.996075e+02 4.626712e+02 1.202434e+06 9.619334e+02 7.709339e+06
1.278246e-04 2.996037e+02 4.624094e+02 1.202094e+06 9.616609e+02 7.702796e+06
1.287327e-04 2.995998e+02 4.621476e+02 1.201753e+06 9.613885e+02 7.696257e+06
1.296407e-04 2.995960e+02 4.618860e+02 1.201413e+06 9.611161e+02 7.689722e+06
1.305485e-04 2.995921e+02 4.616245e+02 1.201073e+06 9.608437e+02 7.683193e+06
1.314559e-04 2.995882e+02 4.613632e+02 1.200733e+06 9.605715e+02 7.676670e+06
1.323631e-04 2.995843e+02 4.611020e+02 1.200393e+06 9.602993e+02 7.670153e+06
1.332701e-04 2.995804e+02 4.608410e+02 1.200053e+06 9.600272e+02 7.663640e+06
1.341770e-04 2.995764e+02 4.605800e+02 1.199714e+06 9.597551e+02 7.657132e+06
1.350839e-04 2.995725e+02 4.603192e+02 1.199374e+06 9.594830e+02 7.650627e+06
1.359908e-04 2.995685e+02 4.600584e+02 1.199034e+06 9.592109e+02 7.644127e+06
1.368973e-04 2.995645e+02 4.597978e+02 1.198694e+06 9.589389e+02 7.637633e+06
1.378035e-04 2.995606e+02 4.595373e+02 1.198355e+06 9.586670e+02 7.631144e+06
1.387095e-04 2.995565e+02 4.592770e+02 1.198015e+06 9.583951e+02 7.624661e+06
1.396154e-04 2.995525e+02 4.590168e+02 1.197676e+06 9.581233e+02 7.618183e+06
1.405211e-04 2.995485e+02 4.587567e+02 1.197337e+06 9.578516e+02 7.611709e+06
1.414269e-04 2.995444e+02 4.584967e+02 1.196997e+06 9.575798e+02 7.605238e+06
1.423325e-04 2.995404e+02 4.582368e+02 1.196658e+06 9.573081e+02 7.598772e+06
1.432378e-04 2.995363e+02 4.579771e+02 1.196319e+06 9.570364e+02 7.592313e+06
1.441429e-04 2.995322e+02 4.577175e+02 1.195980e+06 9.567649e+02 7.585858e+06
1.450478e-04 2.995281e+02 4.574580e+02 1.195641e+06 9.564934e+02 7.579409e+06
1.459525e-04 2.995240e+02 4.571987e+02 1.195302e+06 9.562219e+02 7.572964e+06
1.468571e-04 2.995198e+02 4.569394e+02 1.194963e+06 9.559504e+02 7.566524e+06
1.477618e-04 2.995157e+02 4.566803e+02 1.194624e+06 9.556790e+02 7.560087e+06
1.486663e-04 2.995115e+02 4.564212e+02 1.194285e+06 9.554076e+02 7.553656e+06
1.495705e-04 2.995074e+02 4.561623e+02 1.193946e+06 9.551363e+02 7.547230e+06
1.504744e-04 2.995032e+02 4.559036e+02 1.193607e+06 9.548650e+02 7.540809e+06
1.513782e-04 2.994990e+02 4.556449e+02 1.193269e+06 9.545938e+02 7.534393e+06
1.522818e-04 2.994947e+02 4.553864e+02 1.192930e+06 9.543227e+02 7.527982e+06
1.531854e-04 2.994905e+02 4.551280e+02 1.192592e+06 9.540515e+02 7.521575e+06
1.540890e-04 2.994862e+02 4.548696e+02 1.192253e+06 9.537804e+02 7.515172e+06
1.549924e-04 2.994820e+02 4.546114e+02 1.191915e+06 9.535093e+02 7.508773e+06
1.558954e-04 2.994777e+02 4.543534e+02 1.191576e+06 9.532383e+02 7.502381e+06
1.567983e-04 2.994734e+02 4.540955e+02 1.191238e+06 9.529674e+02 7.495994e+06
1.577010e-04 2.994691e+02 4.538377e+02 1.190900e+06 9.526965e+02 7.489611e+06
1.586036e-04 2.994648e+02 4.535800e+02 1.190562e+06 9.524256e+02 7.483233e+06
1.595062e-04 2.994604e+02 4.533223e+02 1.190224e+06 9.521548e+02 7.476858e+06
1.604087e-04 2.994561e+02 4.530648e+02 1.189886e+06 9.518839e+02 7.470488e+06
1.613110e-04 2.994517e+02 4.528074e+02 1.189547e+06 9.516132e+02 7.464123e+06
1.622130e-04 2.994474e+02 4.525502e+02 1.189210e+06 9.513425e+02 7.457764e+06
1.631148e-04 2.994430e+02 4.522931e+02 1.188872e+06 9.510719e+02 7.451409e+06
1.640165e-04 2.994386e+02 4.520361e+02 1.188534e+06 9.508013e+02 7.445060e+06
1.649181e-04 2.994341e+02 4.517792e+02 1.188196e+06 9.505307e+02 7.438714e+06
1.658198e-04 2.994297e+02 4.515224e+02 1.187858e+06 9.502601e+02 7.432371e+06
1.667212e-04 2.994252e+02 4.512657e+02 1.187521e+06 9.499895e+02 7.426034e+06
1.676224e-04 2.994208e+02 4.510091e+02 1.187183e+06 9.497191e+02 7.419702e+06
1.685234e-04 2.994163e+02 4.507527e+02 1.186845e+06 9.494487e+02 7.413375e+06
1.694242e-04 2.994118e+02 4.504964e+02 1.186508e+06 9.491784e+02 7.407053e+06
1.703249e-04 2.994073e+02 4.502402e+02 1.186171e+06 9.489080e+02 7.400736e+06
1.712256e-04 2.994028e+02 4.499841e+02 1.185833e+06 9.486377e+02 7.394422e+06
1.721263e-04 2.993982e+02 4.497280e+02 1.185496e+06 9.483674e+02 7.388111e+06
1.730267e-04 2.993937e+02 4.494722e+02 1.185158e+06 9.480972e+02 7.381807e+06
1.739269e-04 2.993891e+02 4.492164e+02 1.184821e+06 9.478270e+02 7.375507e+06
1.748269e-04 2.993845e+02 4.489608e+02 1.184484e+06 9.475569e+02 7.369213e+06
1.757267e-04 2.993799e+02 4.487053e+02 1.184147e+06 9.472868e+02 7.362923e+06
1.766266e-04 2.993753e+02 4.484498e+02 1.183810e+06 9.470167e+02 7.356636e+06
1.775264e-04 2.993707e+02 4.481945e+02 1.183473e+06 9.467467e+02 7.350354e+06
1.784261e-04 2.993661e+02 4.479393e+02 1.183136e+06 9.464766e+02 7.344076e+06
1.793254e-04 2.993614e+02 4.476842e+02 1.182799e+06 9.462067e+02 7.337804e+06
1.802246e-04 2.993567e+02 4.474292e+02 1.182462e+06 9.459368e+02 7.331536e+06
1.811237e-04 2.993521e+02 4.471744e+02 1.182125e+06 9.456670e+02 7.325274e+06
1.820227e-04 2.993474e+02 4.469196e+02 1.181788e+06 9.453971e+02 7.319015e+06
1.829217e-04 2.993426e+02 4.466650e+02 1.181452e+06 9.451273e+02 7.312760e+06
1.838206e-04 2.993379e+02 4.464104e+02 1.181115e+06 9.448575e+02 7.306509e+06
1.847192e-04 2.993332e+02 4.461560e+02 1.180778e+06 9.445878e+02 7.300263e+06
1.856177e-04 2.993284e+02 4.459017e+02 1.180442e+06 9.443181e+02 7.294023e+06
1.865159e-04 2.993237e+02 4.456475e+02 1.180105e+06 9.440485e+02 7.287787e+06
1.874141e-04 2.993189e+02 4.453934e+02 1.179769e+06 9.437789e+02 7.281555e+06
1.883123e-04 2.993141e+02 4.451394e+02 1.179432e+06 9.435093e+02 7.275327e+06
1.892105e-04 2.993093e+02 4.448855e+02 1.179096e+06 9.432396e+02 7.269102e+06
1.901084e-04 2.993044e+02 4.446317e+02 1.178760e+06 9.429701e+02 7.262884e+06
1.910061e-04 2.992996e+02 4.443780e+02 1.178423e+06 9.427007e+02 7.256670e+06
1.919036e-04 2.992947e+02 4.441245e+02 1.178087e+06 9.424312e+02 7.250460e+06
1.928010e-04 2.992899e+02 4.438711e+02 1.177751e+06 9.421619e+02 7.244256e+06
1.936984e-04 2.992850e+02 4.436177e+02 1.177415e+06 9.418925e+02 7.238054e+06
1.945959e-04 2.992801e+02 4.433645e+02 1.177079e+06 9.416231e+02 7.231857e+06
1.954931e-04 2.992751e+02 4.431113e+02 1.176743e+06 9.413537e+02 7.225664e+06
1.963900e-04 2.992702e+02 4.428583e+02 1.176407e+06 9.410845e+02 7.219476e+06
1.972868e-04 2.992653e+02 4.426055e+02 1.176071e+06 9.408153e+02 7.213294e+06
1.981835e-04 2.992603e+02 4.423527e+02 1.175735e+06 9.405461e+02 7.207115e+06
1.990802e-04 2.992553e+02 4.421000e+02 1.175399e+06 9.402769e+02 7.200940e+06
1.999768e-04 2.992504e+02 4.418474e+02 1.175063e+06 9.400077e+02 7.194769e+06
2.008733e-04 2.992453e+02 4.415949e+02 1.174727e+06 9.397386e+02 7.188603e+06
2.017696e-04 2.992403e+02 4.413425e+02 1.174391e+06 9.394695e+02 7.182441e+06
2.026657e-04 2.992353e+02 4.410902e+02 1.174056e+06 9.392005e+02 7.176285e+06
2.035617e-04 2.992303e+02 4.408381e+02 1.173720e+06 9.389315e+02 7.170132e+06
2.044576e-04 2.992252e+02 4.405861e+02 1.173385e+06 9.386626e+02 7.163984e+06
2.053536e-04 2.992201e+02 4.403341e+02 1.173049e+06 9.383936e+02 7.157839e+06
2.062494e-04 2.992150e+02 4.400822e+02 1.172713e+06 9.381246e+02 7.151698e+06
2.071450e-04 2.992099e+02 4.398305e+02 1.172378e+06 9.378558e+02 7.145563e+06
2.080404e-04 2.992048e+02 4.395789e+02 1.172043e+06 9.375869e+02 7.139432e+06
2.089357e-04 2.991997e+02 4.393274e+02 1.171707e+06 9.373181e+02 7.133306e+06
2.098309e-04 2.991945e+02 4.390759e+02 1.171372e+06 9.370494e+02 7.127183e+06
2.107262e-04 2.991893e+02 4.388246e+02 1.171037e+06 9.367806e+02 7.121064e+06
2.116214e-04 2.991842e+02 4.385733e+02 1.170701e+06 9.365118e+02 7.114949e+06
2.125163e-04 2.991790e+02 4.383222e+02 1.170366e+06 9.362431e+02 7.108839e+06
2.134111e-04 2.991738e+02 4.380712e+02 1.170031e+06 9.359745e+02 7.102734e+06
2.143057e-04 2.991685e+02 4.378204e+02 1.169696e+06 9.357059e+02 7.096634e+06
2.152003e-04 2.991633e+02 4.375696e+02 1.169361e+06 9.354373e+02 7.090537e+06
2.160948e-04 2.991580e+02 4.373188e+02 1.169026e+06 9.351687e+02 7.084444e+06
2.169894e-04 2.991528e+02 4.370682e+02 1.168691e+06 9.349001e+02 7.078354e+06
2.178837e-04 2.991475e+02 4.368177e+02 1.168356e+06 9.346315e+02 7.072270e+06
